INDEX VERSION 1.131+C:\Users\ramannpr\support_works\prasad\.metadata\.plugins\org.eclipse.jdt.core
2676596651.index
4253793601.index
1614806129.index
728617311.index
3998330507.index
1100469945.index
890392424.index
2636364502.index
2114095709.index
1841161210.index
1495270895.index
118965941.index
1555414967.index
424685099.index
3923730955.index
1314380015.index
2185524742.index
3537511735.index
4063562878.index
4032898619.index
2732951873.index
2870172010.index
3025004983.index
3756435893.index
329176257.index
4140093956.index
1996277969.index
3141256530.index
2178951193.index
398852022.index
294162493.index
678002009.index
1225148049.index
385337418.index
3293535771.index
2329653034.index
3188269809.index
693055684.index
31019019.index
1674585818.index
106914297.index
1155387049.index
2112741047.index
2665307374.index
2633729249.index
379213032.index
4226891476.index
841176959.index
3343425514.index
1575101634.index
1972697557.index
3295636127.index
943638029.index
972511311.index
3983801316.index
3459187143.index
1998944798.index
1746906003.index
287546528.index
3317716024.index
143778750.index
2167675953.index
2791078499.index
4141541229.index
2650667668.index
779132779.index
4042950648.index
450080236.index
408636434.index
2532292776.index
2832210800.index
3979419098.index
1937889774.index
1654550196.index
1238623672.index
1692024486.index
3201819475.index
2679410069.index
876357155.index
1228796139.index
309072976.index
662121034.index
964242023.index
2496598540.index
1760445989.index
798837789.index
689502246.index
594058326.index
2563253684.index
4127193397.index
1655230666.index
2806705953.index
3664434139.index
3163738933.index
2620650766.index
3916596998.index
1021079404.index
1338674406.index
3275976747.index
986730341.index
1085394245.index
1987721707.index
1315345580.index
1158433969.index
2507475985.index
362199794.index
1846372471.index
4236023713.index
282548969.index
1300395365.index
2320244123.index
3058141218.index
1367400509.index
3237629291.index
2744945701.index
332552512.index
1754503410.index
273907884.index
3920016475.index
1989775971.index
