INDEX VERSION 1.131+C:\Users\ramannpr\support_works\prasad\.metadata\.plugins\org.eclipse.jdt.core
1650732884.index
890392424.index
486212650.index
465150192.index
1253441553.index
106914297.index
3515129874.index
3511723715.index
4010566227.index
813966927.index
3795247591.index
3447939360.index
398852022.index
362199794.index
2138448766.index
4237426067.index
3484441794.index
2826165369.index
870993433.index
1084772038.index
1495270895.index
1614806129.index
3962763584.index
1657313049.index
1423314316.index
1746906003.index
4088453328.index
2642397326.index
1508738211.index
1709371982.index
655375146.index
1353222841.index
2970272929.index
2747938833.index
2169407369.index
1956158391.index
3662550970.index
3549324868.index
1434590085.index
262629720.index
3196848607.index
1456010245.index
3141256530.index
3902746089.index
4020449950.index
1225148049.index
3244034644.index
3751154532.index
1098164584.index
1972697557.index
3572692575.index
2398531443.index
986730341.index
1892195776.index
2915718050.index
3723013793.index
2915072775.index
4174907092.index
2568692430.index
1918927979.index
2231687035.index
3113459258.index
1618400528.index
2676596651.index
262584783.index
1843123581.index
3017227148.index
2986274923.index
4052862817.index
575839070.index
2564154321.index
778568628.index
2204403105.index
3722966287.index
2507475985.index
4057192102.index
2720751595.index
1028419663.index
2988535940.index
2809423333.index
3211773916.index
1428256770.index
3664434139.index
2532292776.index
225032474.index
1281337094.index
4208017447.index
1207742474.index
1458409927.index
3804311065.index
3116846752.index
962547040.index
1707860295.index
2950603888.index
4010656398.index
1856369856.index
2229980189.index
3585466628.index
689552030.index
4072707551.index
1582025922.index
1020184470.index
1515444387.index
2099293024.index
1655230666.index
3395646240.index
2832459767.index
