INDEX VERSION 1.131+C:\Users\ramannpr\support_works\prasad\.metadata\.plugins\org.eclipse.jdt.core
4010566227.index
3172434085.index
3039184894.index
3873696353.index
3314676928.index
2993760229.index
3927588645.index
204270262.index
655375146.index
1841161210.index
1064677254.index
689502246.index
967604798.index
3638074430.index
689552030.index
2446801830.index
3858593789.index
1926494487.index
225032474.index
2057580938.index
2397943341.index
2612264625.index
4107267014.index
3447655771.index
3088083868.index
3645188249.index
236485544.index
3170267773.index
1487470015.index
1967656144.index
49563175.index
3105904648.index
824493093.index
3906677818.index
854349363.index
45900687.index
1646152524.index
790293785.index
4285879476.index
4103046612.index
2252751368.index
3886130372.index
1367400509.index
143778750.index
4174215151.index
1935919833.index
508145117.index
1253688453.index
1332338827.index
1931959926.index
1956158391.index
4018108279.index
2814638989.index
479192563.index
656741405.index
3905302235.index
612732444.index
1186055455.index
1141776122.index
3722966287.index
4174907092.index
26683265.index
1230808603.index
2216792810.index
2568692430.index
2328156822.index
378153073.index
3141256530.index
262629720.index
2043158955.index
2947168652.index
895729470.index
3117044325.index
3538928795.index
534771633.index
319198531.index
3613472930.index
1575160330.index
2315212759.index
3105240111.index
2753425689.index
528844237.index
1918927979.index
1348460059.index
1039947775.index
4208017447.index
2650667668.index
1913755281.index
2507475985.index
4159483876.index
3916596998.index
4060316259.index
3113459258.index
4070714971.index
3569779.index
1428256770.index
3440093413.index
2867978721.index
2826165369.index
3840085498.index
1817573572.index
842300565.index
4292596826.index
1918478546.index
3435648363.index
3462901818.index
3934181729.index
3459187143.index
3907688511.index
2239862724.index
2513380141.index
3241957223.index
3175952435.index
423668821.index
416860875.index
1098164584.index
4093995104.index
106914297.index
3650350887.index
94449564.index
1172979784.index
2665307374.index
1512354266.index
1784471538.index
752481733.index
3796863028.index
1456010245.index
3087405174.index
3059999453.index
1946876648.index
3784670313.index
3168635896.index
466177304.index
866614564.index
1202823567.index
3753146388.index
252168482.index
2772672340.index
2633729249.index
1074034360.index
1314380015.index
1887114750.index
374393369.index
3428192719.index
2526506392.index
814000683.index
1709371982.index
4169496016.index
870993433.index
540026970.index
1431376808.index
2642397326.index
1794101974.index
4232178577.index
1109359369.index
2394550699.index
3910034423.index
4113181042.index
3885883768.index
3044087839.index
852844870.index
4127193397.index
3237629291.index
1285544063.index
1129633148.index
594058326.index
4064774439.index
4134185222.index
721664578.index
787943540.index
1711508044.index
3458545945.index
1868506232.index
962547040.index
465150192.index
3420260382.index
1299573515.index
1972697557.index
619850844.index
2693759686.index
2915718050.index
1017853883.index
4128725239.index
258828259.index
1900690243.index
1207742474.index
126178538.index
4021318966.index
813966927.index
3901881091.index
1066430838.index
2532292776.index
3606698810.index
890392424.index
972511311.index
1430751768.index
1383676438.index
544025368.index
746186867.index
785988714.index
1310930582.index
4264382376.index
719321456.index
37777695.index
3796983909.index
3329869171.index
1756086121.index
145137536.index
976572265.index
1793950835.index
1696494569.index
1190930684.index
169796881.index
397107564.index
881775183.index
3602764609.index
2841650353.index
2986274923.index
1292625792.index
2543527996.index
2013734287.index
1386440510.index
3585466628.index
4227511658.index
3694573577.index
4164339406.index
3515129874.index
1037870548.index
2788070539.index
2732872949.index
986730341.index
2054705722.index
3662550970.index
1084772038.index
4037161732.index
1020184470.index
3008120388.index
1362710205.index
2383404095.index
566180647.index
1124822095.index
1406158355.index
129926492.index
4010656398.index
985503597.index
4124237727.index
172809347.index
1728104543.index
1408393328.index
1893894727.index
3086375095.index
3189596959.index
362199794.index
993262294.index
1710102452.index
602777185.index
2496598540.index
1703863742.index
3647069862.index
4270902516.index
4248066816.index
3661497918.index
1158433969.index
377629116.index
207341042.index
4290839887.index
3537511735.index
467965890.index
1937061819.index
410254888.index
3484441794.index
3468527636.index
1281337094.index
2112741047.index
1912225051.index
4252887552.index
2478476960.index
198434932.index
2289243406.index
3491642073.index
1883546252.index
575839070.index
3265639762.index
3878524279.index
1337351106.index
2284361353.index
4171242263.index
4212076456.index
560671942.index
55281450.index
3211773916.index
2988535940.index
3894642630.index
3751154532.index
446869445.index
385337418.index
4133597683.index
748426197.index
1586054863.index
1865563010.index
2231687035.index
2146607064.index
937209643.index
3357354403.index
902432117.index
667067614.index
3490498035.index
1650732884.index
3373731574.index
4072404200.index
2088757168.index
2669873715.index
1238143480.index
675867160.index
2014581491.index
2398531443.index
3777284395.index
1657313049.index
2329653034.index
1887289306.index
1576609233.index
2925679001.index
1696811155.index
3804311065.index
1487783305.index
4195670730.index
1038425260.index
2343436462.index
2237330509.index
1301585996.index
1927604672.index
3373914127.index
853294408.index
3423015731.index
7685736.index
1797716867.index
226300725.index
2080692850.index
1760445989.index
1423314316.index
2091527561.index
1225148049.index
3592324085.index
2168459144.index
3929731714.index
2941501479.index
2935313974.index
3883608304.index
2915072775.index
1458409927.index
710418648.index
2623338513.index
2099293024.index
870186519.index
657863722.index
1989775971.index
2138448766.index
3405796707.index
1435580009.index
2514274088.index
3521849231.index
676535794.index
3893736426.index
380594317.index
447525961.index
3596898165.index
450080236.index
2564154321.index
955409931.index
3818874458.index
1368622536.index
2405708574.index
1068415008.index
3447355029.index
2020632996.index
3196848607.index
2699172768.index
1385153547.index
3324128331.index
1608579526.index
4088453328.index
2204403105.index
242888087.index
3736634369.index
2458137043.index
3974896339.index
4057192102.index
3915658389.index
696938426.index
4087089178.index
2087046768.index
398852022.index
3657961646.index
3027903387.index
1185596129.index
3383181469.index
3979317889.index
4264640742.index
2290011935.index
4052862817.index
900287940.index
4244043495.index
1843123581.index
1401501661.index
3357573583.index
919331380.index
2547374296.index
2513897111.index
1515444387.index
2568614280.index
3554970031.index
205417611.index
34028873.index
3241717052.index
2832459767.index
2676596651.index
3967280502.index
1788716167.index
2366187434.index
1575816604.index
771239714.index
3124212318.index
4237426067.index
1710066175.index
673205652.index
3592575225.index
1214367305.index
3723013793.index
3499792542.index
3579271641.index
178679749.index
2991459185.index
2335980471.index
2100239904.index
494466972.index
1707860295.index
28172879.index
1508738211.index
4184620892.index
2931242201.index
446937105.index
1949151785.index
1392168589.index
1752862138.index
117517524.index
1869980616.index
640468108.index
3629067910.index
323151082.index
3880282096.index
1810282188.index
4101878160.index
1043540684.index
3035225737.index
3967364139.index
3454296904.index
4266403740.index
1315345580.index
1445052533.index
1943426120.index
3090139439.index
2950603888.index
3367366298.index
773387265.index
2529736297.index
737060273.index
1076844087.index
2496892430.index
3846495809.index
2750064054.index
2275476630.index
1133951738.index
4085636665.index
4162065591.index
3703164100.index
3498054282.index
45705532.index
2747938833.index
3008087201.index
1214192652.index
262584783.index
25350427.index
3572692575.index
1082481055.index
3413260758.index
2070211934.index
1631935420.index
949368981.index
1241979225.index
1746906003.index
2935082616.index
2425979798.index
2718983016.index
1228323271.index
3142859894.index
4136073177.index
1001982692.index
3163590721.index
3653075399.index
4045584809.index
3503238276.index
1028419663.index
3214032515.index
4184487619.index
1542717898.index
2796258887.index
3376339023.index
2407129934.index
2745507954.index
2399425340.index
692542439.index
778568628.index
4138088939.index
810136069.index
2211164925.index
1711503544.index
3244034644.index
1848028540.index
89754900.index
4072707551.index
3695637975.index
2756174590.index
1159230734.index
1068494516.index
3292617649.index
1463914814.index
412363776.index
1718566135.index
2229980189.index
2970272929.index
3408838264.index
2963618097.index
1228135853.index
3013684617.index
854726998.index
3603690196.index
3017227148.index
1892195776.index
4140093956.index
1485899781.index
4020449950.index
2169407369.index
1056853.index
1998944798.index
2847548542.index
2871731874.index
2091716999.index
2384262835.index
4063562878.index
3643578088.index
2127084088.index
1405278549.index
1614806129.index
408515804.index
4083612493.index
822923203.index
709509821.index
3742690662.index
4034046130.index
1353222841.index
3261239881.index
3049543270.index
2940041470.index
3709201543.index
2763765207.index
1180915522.index
2801091492.index
731968244.index
3554285876.index
767075105.index
3622244527.index
3139554680.index
3972787828.index
2367629942.index
2698540235.index
4208700202.index
2001499241.index
1768775439.index
381549808.index
1655230666.index
3359857299.index
3116846752.index
4035975746.index
3247542602.index
3317716024.index
4164013582.index
1382559088.index
3253142721.index
2691358998.index
3787286074.index
1856131186.index
481162704.index
3900835787.index
2316809308.index
2404734163.index
3930132713.index
2215269720.index
3826042218.index
2996827272.index
3324931613.index
3511723715.index
4232051722.index
4141541229.index
1975972258.index
304938151.index
2563296857.index
1699902938.index
2511425907.index
1856369856.index
2410278499.index
314878857.index
2862401900.index
4109700614.index
2720751595.index
486212650.index
3163738933.index
359994688.index
3567444875.index
2300385356.index
2363774528.index
3697795078.index
246294341.index
753901246.index
1879276555.index
3199405612.index
682513672.index
3324278907.index
1426823354.index
3880231276.index
3863328446.index
3201819475.index
2313958777.index
2114934741.index
2428704952.index
410985635.index
2063703583.index
876485979.index
4030987142.index
1082335820.index
786902668.index
751887502.index
2570196179.index
3780435684.index
624159616.index
1103832381.index
2578411941.index
1495270895.index
3796809307.index
4236023713.index
27145952.index
347435434.index
2936514685.index
1438252342.index
1022489412.index
2056733692.index
3935390762.index
1291324173.index
2791972931.index
2637473363.index
3791829941.index
3962763584.index
1962001154.index
525992472.index
211402758.index
1373078516.index
2515198726.index
309072976.index
1582025922.index
1253441553.index
4016404235.index
1751319221.index
2809423333.index
3950917447.index
332552512.index
2241811906.index
3902746089.index
3395646240.index
4153427531.index
2218208024.index
4253793601.index
2489603728.index
271245235.index
2586063389.index
4221304213.index
175086123.index
3008664913.index
1434590085.index
924709048.index
3447939360.index
1448033013.index
636068967.index
911245093.index
3549324868.index
424372971.index
3115721334.index
2178951193.index
3483122478.index
2870172010.index
3090767186.index
3664434139.index
